22221111122120212222022222222222222222222222222222222222222222222222222222221
22111111122122112121222222222222222222222222222222222222222222222222222222222
22221111122122212222222222222222222222222222222222222222222222222222222222221
22221111122121112221122222222222222222222222222222222222222222222222222222222
22221111122121112121122222222222222222222222222222222222222222222222222222222
22221111122122212122222222222222222222222222222222222222222222222222222222222
22211111122121112121122222222222222222222222222222222222222222222222222222222
22221111122120112121022222222222222222222222222222222222222222222222222222221
22221111122121112121122222222222222222222222222222222222222222222222222222221
22221111122122112121222222222222222222222222222222222222222222222222222222221
22221111122122112121221222222222222222222222222222222222222222222222222222222
22221111122120212222022222222222222222222222222222222222222222222222222222221
22121111122121112221122222222222222222222222222222222222222222222222222222222
22111111122121212222122222222222222222222222222222222222222222222222222222221
12121111112120122221022222222222222222222222222222222222222222222222222222212
22121111122122112121222222222222222222222222222222222222222222222222222222222
22111111122122212222222222222222222222222222222222222222222222222222222222222
22111111122121212222122222222222222222222222222222222222222222222222222222222
12121111112122222222222222222222222222222222222222222222222222222222222222122
22121111122121112121122222222222222222222222222222222222222222222222222222222
22111111222122112221222222222222222222222222222222222222222222222222222222221
22221111122122112121222222222222222222222222222222222222222222222222222222221
22111111122121112121122222222222222222222222222222222222222222222222222222221
12121111112122122221222222222222222222222222222222222222222222222222222222221
12121111112122122121212222222222222222222222222222222222222222222222222222222
12221111112122222222222222222222222222222222222222222222222222222222222222221
12121111112122222222212222111222222222222222222222222222222222222222222222222
12121111112120122221012222222222222222222222222222222222222222222222222222222
12221111112122222122222222222222222222222222222222222222222222222222222222222
12111111112121222222112222222222222222222222222222222222222222222222222222222
12121111112122222122222222222222222222222222222222222222222222222222222222222
12121111111122222122222222222222222222222222222222222222222222222222222222221
12111111112120222222012222222222222222222222222222222222222222222222222222221
12221111112122222222222222222222222222222222222222222222222222222222222222222
12221111112122222122212222222222222222222222222222222222222222222222222222221
22221111122121112221122222222222222222222222222222222222222222222222222222222
22221111122120112121022222222222222222222222222222222222222222222222222222221
22221111122121112221122222222222222222222222222222222222222222222222222222222
22221111122121112121122222222222222222222222222222222222222222222222222222222
22111111122122212222222222222222222222222222222222222222222222222222222222222
22221111122121212222122222222222222222222222222222222222222222222222222222222
22211111122121112221122222222222222222222222222222222222222222222222222222222
22221111121120211112222222222222222222222222222222222222222222222222222222221
22221111122121112121122222222222222222222222222222222222222222222222222222221
21221111121122211221222222222222222222222222222222222222222222222222222222222
22221111122120112221122222222222222222222222222222222222222222222222222222221
12121111111121122121122222222222222222222222222222222222222222222222222222221
12211111112122222122212222222222222222222222222222222222222222222222222222222
22221111122122222222221222222222222222222222222222222222222222222222222222221
12111111112122122221222222222222222222222222222222222222222222222222222222222
12121111112121122221122222222222222222222222222222222222222222222222221222222
12111111112122222122222222222222222222222222222222222222222222222222222222222
12121111112122222122212222222222222222222222222222222222222222222222222222221
12221111111122122121222222222222222222222222222222222222222222222222222222222
12111111111122122121222222222222222222222222222222222222222222222222222222222
12121111111122122121212222222222222222222222222222222222222222222222222222221
12221111112122222122222222222222222222222222222222222222222222222222222222221
12111111112121122121112222222222222222222222222222222222222222222222222222221
12121111112121122221122222222222222222222222222222222222222222222222222222222
12121111112121122121122222222222222222222222222222222222222222222222222222221
12121111112120122221022222222222222222222222222222222222222222222222222222221
12111111112121122121022222222222222222222222222222222222222222222222222222222
12121111112120122121022222222222222222222222222222222222222222222222222222222
12111111112122122121212222222222222222222222222222222222222222222222222222222
12111111112122222122212222222222222222222222222222222222222222222222222222222
12211111112122222222022222222222222222222222222222222222222222222222222222222
12121111112121122221122222222222222222222222222222222222222222222222222222221
12111111112122222222222222222222222222222222222222222222222222222222222222222
12121111112122222122222222222222222222222222222222222222222222222222222222221
12211111112122122121222222222222222222222222222222222222222222222222222222221
12121111112122222122212222222222222222222222222222222222222222222222222222222
22221111122122212122221222222222222222222222222222222222222222222222222222221
22121111122122112121222222222222222222222222222222222222222222222222222222222
22121111122122122121222222222222222222222222222222222222222222222222222222222
22121111122120112221022222222222222222222222222222222222222222222222222222221
12121111112222222122222222222222222222222222222222222222222222222222222222221
22221111121121111221122222222222222222222222222222222222222222222222222222221
22221111122121212222122222222222222222222222222222222222222222222222222222221
12121111111122122122222222222222222222222222222222222222222222222222222222221
12111111112222222122222222222222222222222222222222222222222222222222222222222
22121111122122112121222222222222222222222222222222222222222222222222222222221
12111111112122222222212222222222222222222222222222222222222222222222222222222
12121111112122222222212222222222222222222222222222222222222222222222222222221
12111111112120222222012222222222222222222222222222222222222222222222222222221
12111111112122122121212222222222222222222222222222222222222222222222222222222
12111111112122122121212222222222222222222222222222222222222222222222222222222
12121111112122122121212222222222222222222222222222222222222222222222222222222
12121111112222222122222222222222222222222222222222222222222222222222222222222
11111111111212221112222222222222222222222222222222222222222222222222222222222
12121111112122222222012222222222222222222222222222222222222222222222222222221
12111111111122122121222222222222222222222222222222222222222222222222222222221
12121111112122222122212222222222222222222222222222222222222222222222222222221
22221111122120112121022222222222222222222222222222222222222222222222222222221
22121111122122112221222222222222222222222222222222222222222222222222222222222
22121111222122212222221222222222222222222222222222222222222222222222222222221
12121111112120122221022222222222222222222222222222222222222222222222222222222
22111111122122112121222222222222222222222222222222222222222222222222222222222
22211111222122212222222222222222222222222222222222222222222222222222222222221
22121111122121112121122222222222222222222222222222222222222222222222222222222
22121111122122112121222222222222222222222222222222222222222222222222222222221
22111112222222212122222222222222222222222222222222222222222222222222222222221
22111111122121122221122222222222222222222222222222222222222222222222222222221
22111212222112212222221222222222222222222222222222222222222222222222222222221
22221111122121112221122222222222222222222222222222222222222222222222222222221
12111111112120122221022222222222222222222222222222222222222222222222222222222
12121111112122222122222222222222222222222222222222222222222222222222222222221
12211111112222222122222222222222222222222222222222222222222222222222222222222
12121111112122122121222222222222222222222222222222222222222222222222222222222
12121111112122122221222222222222222222222222222222222222222222222222222222222
12221111112121122221122222222222222222222222222222222222222222222222222222222
12221111112122122121222222222222222222222222222222222222222222222222222222222
22111111122122212122222222222222222222222222222222222222222222222222222222222
12121111112121222222122222222222222222222222222222222222222222222222222222222
12221111112122222122222222222222222222222222222222222222222222222222222222221
12221111112222222122222222222222222222222222222222222222222222222222222222221
22221111122121212221122222222222222222222222222222222222222222222222222222221
22221111122120212222022222222222222222222222222222222222222222222222222222222
22111111122122212122222222222222222222222222222222222222222222222222222222221
22121111122122212222222222222222222222222222222222222222222222222222211222222
22221111122120112221022222222222222222222222222222222222222222222222221222222
22221111122121212221122222222222222222222222222222222222222222222222222222222
22221111121121112221122222222222222222222222222222222222222222222222212222222
22222222121120211222122222222222222222222222222222222222222222222222222222222
22121111122121212122122222222222222222222222222222222222222222222222222222221
22221111122121112221122222222222222222222222222222222222222222222222222222211
22221111122122212122222222222222222222222222222222222222222222222222221222222
22221111122121112221122222222222222222222222222222222222222222222222222222221
12121111112120122221022222222222222222222222222222222222222222222222222222222
22121111122121222122122222222222222222222222222222222222222222222222222222221
12121111112122222122222222222222222222222222222222222222222222222222222222222
12121111112120122121022222222222222222222222222222222222222222222222222222222
12221111112121222122022222222222222222222222222222222222222222222222222222222
12121111112122222122212222222222222222222222222222222222222222222222222222222
22121111122120112121022222222222222222222222222222222222222222222222222222222
12211111112120122221022222222222222222222222222222222222222222222222222222222
12221111112121122121022222222222222222222222222222222222222222222222222222221
11221111111120121121022222222222222222222222222222222222222222222222222222221
12221111111121122121122222222222222222222222222222222222222222222222222222221
12121111112122122121222222222222222222222222222222222222222222222222222222221
12221111112122222222012222222222222222222222222222222222222222222222222222222
12121111212122222122222222222222222222222222222222222222222222222222222222221
12111111112122222221212222222222222222222222222222222222222222222222222222222
12121111112122222122222222222222222222222222222222222222222222222222222222222
12221111112122222222222222222222222222222222222222222222222222222222222222222
12121111112122222222212222222222222222222222222222222222222222222222222222222
12221111112120122121022222222222222222222222222222222222222222222222222222222
12221111112121122121122222222222222222222222222222222222222222222222222222221
12211111112120122221012222222222222222222222222222222222222222222222222222221
12221111112122222222222222222222222222222222222222222222222222222222222222221
12221111112122122221222222222222222222222222222222222222222222222222222222221
12221111112222122121222222222222222222222222222222222222222222222222222222222
12111111112122222222222222222222222222222222222222222222222222222222222222221
22221111122121112221122222222222222222222222222222222222222222222222222222222
12121111112122122221222222222222222222222222222222222222222222222222222222222
22221111122121112121122222222222222222222222222222222222222222222222222222222
22221111122121212222122222222222222222222222222222222222222222222222222222221
22221111122120122221022222222222222222222222222222222222222222222222222222222
22221111122122112221222222222222222222222222222222222222222222222222222222221
22221111122122112121222222222222222222222222222222222222222222222222222222221
12221111112122222122222222222222222222222222222222222222222222222222222222221
22221111122122112122222222222222222222222222222222222222222222222222222222221
12221111111121122121122222222222222222222222222222222222222222222222222222221
12211111112121222222112222222222222222222222222222222222222222222222222222222
12211111112122222122212222222222222222222222222222222222222222222222222222221
12221111112121122121112222222222222222222222222222222222222222222222222222222
12221111112122222222212222222222222222222222222222222222222222222222222222222
12221111212122222222222222222222222222222222222222222222222222222222222222222
12221111112121222122212222222222222222222222222222222222222222222222222222222
12211111111121122121122222222222222222222222222222222222222222222222222222221
12221111111121222122022222222222222222222222222222222222222222222222222222221
12221111111122222122222222222222222222222222222222222222222222222222222222221
12221111112122222122222222222222222222222222222222222222222222222222222222222
12221111112122222122212222222222222222222222222222222222222222222222222222221
22121111122121112221122222222222222222222222222222222222222222222222222222222
22121111122121222222122222222222222222222222222222222222222222222222222222221
12111111112122122121222222222222222222222222222222222222222222222222222222222
22221111122120112221022222222222222222222222222222222222222222222222222222222
12121111112122222222222222222222222222222222222222222222222222222222222222222
22111111122122212122222221222222222222222222222222222222222222222222222222222
12121111112121122221122222222222222222222222222222222222222222222222222222222
22221111122122112121222222222222222222222222222222222222222222222222222222222
22121111122122122121222222222222222222222222222222222222222222222222222222221
12121111112122222222222222222222222222222222222222222222222222222222222222222
22211111122121122221122222222222222222222222222222222222222222222222222222221
22121111122122112121222222222222222222222222222222222222222222222222222222221
12111111112122122121222222222222222222222222222222222222222222222222222222222
22121111122122222222221222222222222222222222222222222222222222222222222222221
12121111112120122122222222222222222222222222222222222222221222222222212222222
12211111112121222222122222222222222212222222222222222222222222222222222222222
12121111112122222122222222222222222222222222222222222222222212222222222222222
22121111122120222122022222222222222221222222222222222222222222222222222222222
22111111122122222222222212221222222221222222222222222222222222222222222222212
22111111122121122221122222222222222222222222222222222222222222222222222222221
12111111112122122121222222222222222222222222222222222222221212222222212222221
12111111112122222122222222222222222222222222222222222222222222222222222222222
12121111112122122121222222222222222222222222222222222222222122222222222222221
22221111122122112221222222222222222222222222222222222222222222222222222222221
22221111122121112221122222222222222222222222222222222222222222222222222222221
22221111121121112221122222222222222222222222222222222222222222222222222222222
22221111122121212222122222222222222222222222222222222222222222222222222222222
22221111122121112221122222222222222222222222222222222222222222222222222222222
22221111122122212222022222222222222222222222222222222222222222222222222222222
22221111122121112121122222222222222222222222222222222222222222222222222222222
22221111122121112221122222222222222222222222222222222222222222222222222222222
22221111121121112221122222222222222222222222222222222222222222222222222222221
22221111122122112221222222222222222222222222222222222222222222222222222222221
22221111122121112221122222222222222222222222222222222222222222222222222222221
12211111112120122221012222222222222222222222222222222222222222222222222222221
12111111112122222222212222222222222222222222222222222222222222222222222222222
12221111212122222222222222222222222222222222222222222222222222222222222222221
12111111112122122221212222222222222222222222222222222222222222222222222222222
12221111112122122221212222222222222222222222222222222222222222222222222222222
12221111112122222222222222222222222222222222222222222222222222222222222222222
12221111112122122121212222222222222222222222222222222222222222222222222222222
12221111112122222122222222222222222222222222222222222222222222222222222222221
12121111112122122121222222222222222222222222222222222222222222222222222222221
12211111112122222122212222222222222222222222222222222222222222222222222222221
12121111212122222122222222222222222222222222222222222222222222222222222222222
12221111111120222122022222222222222222222222222222222222222222222222222222221
22221111122121112221122222222222222222222222222222222222222222222222222222222
22221111122121112221122222222222222222222222222222222222222222222222212222221
22221111122120112221022222222222222222222222222222222222222222222222222222222
22221111122120112221022222222222222222222222222222222222222222222222222222222
22221111122121112221122222222222222222222222222222222222222222222222222222222
22221111122121112121122222222222222222222222222222222222222222222222222222222
22221111122122112121222222222222222222222222222222222222222222222222222222222
22221111122121112121122222222222222222222222222222222222222222222222222222221
22221111122121112121122222222222222222222222222222222222222222222222222222221
22221111122122212222222222222222222222222222222222222222222222222222222222221
22221111122121212222122222222222222222222222222222222222222222222222222222221
22221111122121112121122222222222222222222222222222222222222222222222222222221
22221111122121112221122222222222222222222222222222222222222222222222222222222
22221111122120112221022222211222222222222222222222222222222222222222222222221
22221111122121112221122222222222222222222222222222222222222222222222222222222
22221111122121212221122222222222222222222222222222222222222222222222222222222
22221111222121212222122222222222222222222222222222222222222222222222222222222
22221111122121212222122222222222222222222222222222222222222222222222222222222
22221111122121112221122222222222222222222222222222222222222222222222222222221
22221111122121112221122222222222222222222222222222222222222222222222222222222
22221111122121212221122222222222222222222222222222222222222222222222222222221
22121111222122212222122222222222222222222222222222222222222222222222222222222
22221111122122212221222222222222222222222222222222222222222222222222222222221
12221111112120122221022222222222222222222222222222222222222222222222222222222
12221111112120122121022222222222222222222222222222222222222212222222222222222
12221111112122122121222222222222222222222222222222222222222222222222222222222
12211111212122122121222222222222222222222222222222222222222222222222222222222
12221111112121222222122222222222222222222222222222222222222222222222222222222
12221111112122222222222222222222222222222222222222222222222222222222222222221
12221111112120122221022222222222222222222222222222222222222222222222222222222
12221111112121222122122222222222222222222222222222222222222222222222222222221
12221111112121122221122222222222222222222222222222222222222222222222222222221
12111111212122222122222222222222222222222222222222222222222222222222222222222
12221111112121122221122222222222222222222222222222222222222212222222222222221
12211111112121122121122222111222222222222222222222222222222222222222222222222
12221111112122222122212222222222222222222222222222222222222222222222222222222
12221111112122222222222222222222222222222222222222222222222222222222222222221
12221111112121122121122222222222222222222222222222222222222222222222222222222
12121111112222222122222222222222222222222222222222222222222222222222222222222
12211111112122122221222222222222222222222222222222222222222222222222222222222
12211111112222222122222222222222222222222222222222222222222222222222222222222
12211111112121122221122222222222222222222222222222222222222222222222222222221
12211111112122222222222222222222222222222222222222222222222222222222222222221
12221111112121222122122222222222222222222222222222222222222222222222222222221
22211111122122212122221222222222222222222222222222222222222222222222222222222
12221111112122122221222222222222222222222222222222222222222222222222222222221
12111111112222222122212222222222222222222222222222222222222222222222222222222
12121111112222222122211222222222222222222222222222222222222222222222222222221
12211111112222222122212222222222222222222222222222222222222222222222222222222
12111111111122222122211222222222222222222222222222222222222222222222222222222
12221111112120122221011222222222222222222222222222222222222222222222222222222
12221111112122222122211222222222222222222222222222222222222222222222222222222
12211111112122222222212222222222222222222222222222222222222222222222222222222
12221111111122222122212122222222222222222222222222222222222222222222222222221
12221111112122122121211222222222222222222222222222222222222222222222222222221
12111111112122222122222222222222222222222222222222222222222222222222222222222
12221111112222222122212222222222222222222222222222222222222222222222222222221
12221111111120122221022222222222222222222222222222222222222222222222222222221
12221111112121122221112222222222222222222222222222222222222222222222222222222
12221111112122222222222222222222222222222222222222222222222222222222222222221
12221111112121122221122222222222222222222222222222222222222222222222222222222
12221111111122122221022222222222222222222222222222222222222222222222222222222
12221111111122222222222222222222222222222222222222222222222222222222222222222
12221111112121122221122222222222222222222222222222222222222222222222222222222
12221111111120122221012222222222222222222222222222222222222222222222222222221
12111111112120122221022222222222222222222222222222222222222222222222222222221
12221111111120122221022222222222222222222222222222222222222222222222222222221
12221111112122222222222222222222222222222222222222222222222222222222222222222
12221111111120122121022222222222222222222222222222222222222222222222222222221
22121111122222112122222222222222222222222222222222222222222222222222222222222
12211111112222222122222222222222222222222222222222222222222222222222222222222
12121111112121122221122222222222222222222222222222222222222222222222222222221
22111111122121112121122222222222222222222222222222222222222222222222222222222
22121111122120112221022222222222222222222222222222222222222222222222222222221
12121111112121122121122222222222222222222222222222222222222222222222222222222
12121111112122222222222222222222222222222222222222222222222222222222222222222
22221111122121112121122222222222222222222222222222222222222222222222222222222
12221111112121122221122222222222222222222222222222222222222222222222222222221
22221111122120212222022222222222222222222222222222222222222222222222222222221
12211111212122122121222222222222222222222222222222222222222222222222222222221
12121111112222222122211222222222222222222222222222222222222222222222222222221
12211111112122222122212222222222222222222222222222222222222222222222222222222
12111112212122222122212122222222222222222222222222222222222222222222222222221
12111111112122122121212222222222222222222222222222222222222222222222222222221
12221111112120222222011222222222222222222222222222222222222222222222222222221
12221111212122222122222222222222222222222222222222222222222222222222222222222
12211111112120222122011222222222222222222222222222222222222222222222222222222
12111111112122122121211222222222222222222222222222222222222222222222222222222
12111111112222222122211222222222222222222222222222222222222222222222222222222
12111111212122222222211222222222222222222222222222222222222222222222222222221
12221111111122222122222222222222222222222222222222222222222222222222222222221
12121111112222222122212222222222222222222222222222222222222222222222222222221
22221111122122112221222222222222222222222222222222222222222222222222222222222
22221111122122112121222222222222222222222222222222222222222222222222222222221
12221111112121122121122222222222222222222222222222222222222222222222222222221
22221111122121112221122222222222222222222222222222222222222222222222222222222
22221111122121112221122222222222222222222222222222222222222222222222222222222
22221111122120112221022222222222222222222222222222222222222222222222222222222
12121111112121222122122222222222222222222222222222222222222222222222222222222
22221111122122112121222222222222222222222222222222222222222222222222222222222
12221111112120222222022222222222222222222222222222222222222222222222222222221
12121111112122122221222222222222222222222222222222222222222222222222222222221
22211111122121112221122222222222222222222222222222222222222222222222222222221
21112222121212211112222222222222222222222222222222222222222222222222222222221
12121111112121222222112222222222222222222222222222222222222222222222222222222
12111112212122222222222222222222222222222222222222222222222222222222222222221
12121111212120222122022222222222222222222222222222222222222222222222222222222
12121111112121122121122222222222222222222222222222222222222222222222222222222
12211111212122222122222222222222222222222222222222222222222222222222222222221
12111111112220122122222222222222222222222222222222222222222222222222222222222
12221111112121122121122222222222222222222222222222222222222222222222222222222
12111112112222222122222222222222222222222222222222222222222222222222222222222
12211111112122122121222222222222222222222222222222222222222222222222222222221
12211111212122222122222222222222222222222222222222222222222222222222222222221
12121111112120122121022222222222222222222222222222222222222222222222222222221
12121111112120222122022222222222222222222222222222222222222222222222222222222
12121111112122222122212222222222222222222222222222222222222222222222222222221
12111111112121122121122222222222222222222222222222222222222222222222222222222
12111111112120122121012222222222222222222222222222222222222222222222222222222
12121111112121122221112222222222222222222222222222222222222222222222222222222
12121111112122122122212222222222222222222222222222222222222222222222222222222
12221111112121222122112222222222222222222222222222222222222222222222222222222
12221111112120222222012222212222222222222222222222222222222222222222222222222
12111111112120122221012222222222222222222222222222222222222222222222222222221
12111111112122122121222222222222222222222222222222222222222222222222222222222
12111111112122222122212222222222222222222222222222222222222222222222222222222
22221111122121112121122222222222222222222222222222222222222222222222222222221
22211111122122112121222222222222222222222222222222222222222222222222222222221
22221111122120212222022222222222222222222222222222222222222222222222222222222
22221111122121112221122222222222222222222222222222222222222222222222222222222
22221111122121112121122222222222222222222222222222222222222222222222222222222
22221111122122212122222222222222222222222222222222222222222222222222222222222
22221111122121112121122221222222222222222222222222222222222222222222222222222
22221111122121112121122222222222222222222222222222222222222222222222222222221
21121111122222112121222222222222222222222222222222222222222222222222222222221
22221111122121212222122222222222222222222222222222222222222222222222222222221
22221111122122112121222222222222222222222222222222222222222222222222222222222
22221111122121112121122222222222222222222222222222222222222222222222222222221
12111111112122122121222222222222222222222222222222222222222222222222222222222
12221111112122222122222222222222222222222222222222222222222222222222222222221
12221111111122122121222222222222222222222222222222222222222222222222222222222
12111111112122122121222222222222222222222222222222222222222222222222222222222
12221111112121122221122222222222222222222222222222222222222222222222222222222
12221111112120122221122222222222222222222222222222222222222222222222222222222
12121111112122222122222222222222222222222222222222222222222222222222222222222
12121111111121222122222222222222222222222222222222222222222222222222222222222
12221111112122122122222222222222222222222222222222222222222222222222222222221
12111111112122222122222222222222222222222222222222222222222222222222222222221
12121111112122122221222222222222222222222222222222222222222222222222222222222
12221111111121122221122222222222222222222222222222222222222222222222222222221
12111111112120222122212222222222222222222222222222222222222222222222222222222
12121111112122222222222222222222222222222222222222222222222222222222222222221
12221111112121122121112222222222222222222222222222222222222222222222222222222
12111111112122122121212222222222222222222222222222222222222222222222222222222
12221111112122222122222222222222222222222222222222222222222222222222222222222
12111111112121222222112222222222222222222222222222222222222222222222222222222
12121111112122122121222222222222222222222222222222222222222222222222222222221
12211111112121122221122222222222222222222222222222222222222222222222222222221
12121111112121122221112222222222222222222222222222222222222222222222222222221
12221111112122222222222222222222222222222222222222222222222222222222222222222
12211111112122122221212222222222222222222222222222222222222222222222222222221
